Messtemperatur      21∞C
U-Bereich           -1V   bis 6V
Anzahl der Meﬂpunkte     50
delay nach Einstellen der Spannung  s
Strombegrenzung     1 A
Kontakt             x
Beleuchtung         d
Kommentar eingeben

voltage / V   current / A   time

-1	-0.1828745	9135.726
-0.86	-0.1827934	9136.276
-0.72	-0.1851293	9137.19
-0.58	-0.1852642	9137.77
-0.44	-0.1849154	9138.316
-0.3	-0.1850942	9138.864
-0.16	-0.1841911	9139.412
-0.02	-0.1836043	9139.959
0.12	-0.1838035	9140.505
0.26	-0.1842818	9141.051
0.4	-0.1837431	9141.597
0.54	-0.1776948	9142.145
0.68	-0.1657222	9142.691
0.82	-0.152988	9143.238
0.96	-0.1380958	9143.785
1.1	-0.1237228	9144.332
1.24	-0.1087429	9144.88
1.38	-0.09172998	9145.493
1.52	-0.0776583	9146.073
1.66	-0.06265341	9146.621
1.8	-0.04724526	9147.168
1.94	-0.03210118	9147.714
2.08	-0.01725207	9148.26
2.22	-0.00203687	9149.009
2.36	0.01375371	9149.554
2.5	0.02879556	9150.102
2.64	0.04403305	9150.648
2.78	0.05915616	9151.195
2.92	0.07458384	9151.742
3.06	0.08933144	9152.282
3.2	0.1036072	9152.896
3.34	0.1185274	9153.434
3.48	0.1337128	9153.98
3.62	0.148226	9154.527
3.76	0.163108	9155.074
3.9	0.1772273	9155.621
4.04	0.1913289	9156.168
4.18	0.2054962	9156.715
4.32	0.2199302	9157.262
4.46	0.2336227	9157.861
4.6	0.2472906	9158.407
4.74	0.2619739	9158.954
4.88	0.2769878	9159.501
5.02	0.2930876	9160.048
5.16	0.3104777	9160.596
5.3	0.3297743	9161.142
5.44	0.3522539	9161.694
5.58	0.3792775	9162.236
5.72	0.4122721	9162.783
5.86	0.4512859	9163.33
6	0.4972129	9163.876
Messtemperatur      21∞C
U-Bereich           -1V   bis 6V
Anzahl der Meﬂpunkte     50
delay nach Einstellen der Spannung  s
Strombegrenzung     1 A
Kontakt             x
Beleuchtung         d
Kommentar eingeben

voltage / V   current / A   time

-1	-0.2382704	9200.317
-0.86	-0.224733	9200.949
-0.72	-0.2123256	9201.516
-0.58	-0.201422	9202.063
-0.44	-0.1982021	9202.609
-0.3	-0.1981995	9203.156
-0.16	-0.1973533	9203.753
-0.02	-0.1970908	9204.302
0.12	-0.1980106	9204.847
0.26	-0.197822	9205.403
0.4	-0.197099	9205.989
0.54	-0.19743	9206.537
0.68	-0.1974343	9207.084
0.82	-0.1968574	9207.631
0.96	-0.196781	9208.178
1.1	-0.1716439	9208.725
1.24	-0.1628021	9209.271
1.38	-0.1359032	9209.818
1.52	-0.1190864	9210.365
1.66	-0.1979945	9210.912
1.8	-0.1980186	9211.459
1.94	-0.1976958	9212.006
2.08	-0.1977292	9212.553
2.22	-0.1975701	9213.101
2.36	-0.1970324	9213.647
2.5	-0.1972357	9214.194
2.64	-0.1976411	9214.741
2.78	-0.1973006	9215.288
2.92	-0.07844549	9215.902
3.06	-0.08424288	9216.476
3.2	-0.0929754	9217.153
3.34	-0.07942303	9217.794
3.48	-0.07639416	9218.37
3.62	-0.07323159	9218.913
3.76	-0.06749066	9219.46
3.9	-0.06308177	9220.007
4.04	-0.05995015	9220.561
4.18	-0.05492133	9221.102
4.32	-0.04929961	9221.648
4.46	-0.03822985	9222.195
4.6	-0.03389635	9222.749
4.74	-0.02600036	9223.289
4.88	-0.01672937	9223.836
5.02	-0.009928318	9224.649
5.16	0.002660358	9225.248
5.3	0.006945328	9225.777
5.44	0.03618157	9226.458
5.58	0.05819229	9227.028
5.72	0.08489532	9227.699
5.86	0.1184587	9228.272
6	0.1620728	9228.818
Messtemperatur      21∞C
U-Bereich           -1V   bis 6V
Anzahl der Meﬂpunkte     50
delay nach Einstellen der Spannung  s
Strombegrenzung     1 A
Kontakt             x
Beleuchtung         d
Kommentar eingeben

voltage / V   current / A   time

-1	-0.2380317	9245.261
-0.86	-0.2244399	9245.813
-0.72	-0.212199	9246.36
-0.58	-0.2015602	9247.307
-0.44	-0.1974258	9247.854
-0.3	-0.1972052	9248.401
-0.16	-0.1967214	9248.955
-0.02	-0.1969347	9249.497
0.12	-0.1965658	9250.042
0.26	-0.1964643	9250.588
0.4	-0.1953438	9251.135
0.54	-0.194951	9251.682
0.68	-0.1948391	9252.229
0.82	-0.195091	9252.776
0.96	-0.1943482	9253.323
1.1	-0.1674394	9253.87
1.24	-0.1587711	9254.417
1.38	-0.1368514	9254.964
1.52	-0.1154202	9255.511
1.66	-0.1935956	9256.058
1.8	-0.1929472	9256.604
1.94	-0.1925249	9257.151
2.08	-0.191686	9257.699
2.22	-0.1914653	9258.245
2.36	-0.1910881	9258.793
2.5	-0.1913919	9259.34
2.64	-0.1907072	9259.887
2.78	-0.191145	9260.434
2.92	-0.07460085	9261.048
3.06	-0.08279017	9261.625
3.2	-0.07971098	9262.168
3.34	-0.08432724	9262.846
3.48	-0.07434085	9263.485
3.62	-0.07071421	9264.062
3.76	-0.06703148	9264.605
3.9	-0.06231762	9265.152
4.04	-0.06247462	9265.831
4.18	-0.05347823	9266.471
4.32	-0.04708685	9267.046
4.46	-0.0413185	9267.591
4.6	-0.0337571	9268.138
4.74	-0.02467906	9268.685
4.88	-0.0169331	9269.231
5.02	-0.00695824	9270.182
5.16	0.003757213	9270.8
5.3	0.0213788	9271.513
5.44	0.0371801	9272.076
5.58	0.06067094	9272.624
5.72	0.09219092	9273.295
5.86	0.1305928	9273.867
6	0.1784957	9274.414
Messtemperatur      21∞C
U-Bereich           -1V   bis 7V
Anzahl der Meﬂpunkte     50
delay nach Einstellen der Spannung  s
Strombegrenzung     1 A
Kontakt             x
Beleuchtung         d
Kommentar eingeben

voltage / V   current / A   time

-1	-0.2407718	9290.408
-0.84	-0.2259113	9290.958
-0.68	-0.2114646	9291.505
-0.52	-0.2019554	9292.051
-0.36	-0.2004664	9292.599
-0.2	-0.1997867	9293.427
-0.04	-0.1999872	9293.994
0.12	-0.1996666	9294.54
0.28	-0.199141	9295.087
0.44	-0.1987221	9295.644
0.6	-0.1977675	9296.229
0.76	-0.1978143	9296.775
0.92	-0.1975296	9297.322
1.08	-0.1717442	9297.869
1.24	-0.161745	9298.416
1.4	-0.1323148	9298.963
1.56	-0.1163706	9299.51
1.72	-0.1960309	9300.058
1.88	-0.1963416	9300.604
2.04	-0.1960156	9301.151
2.2	-0.1960721	9301.698
2.36	-0.1955435	9302.245
2.52	-0.1952988	9302.792
2.68	-0.1948361	9303.339
2.84	-0.1948	9303.887
3	-0.1944333	9304.433
3.16	-0.06475618	9305.048
3.32	-0.08464015	9305.754
3.48	-0.07534005	9306.393
3.64	-0.06955027	9306.967
3.8	-0.06361972	9307.513
3.96	-0.05870692	9308.059
4.12	-0.05067671	9308.606
4.28	-0.04486858	9309.155
4.44	-0.03651095	9309.7
4.6	-0.02783979	9310.247
4.76	-0.01979249	9310.794
4.92	-0.00144037	9311.414
5.08	0.004028608	9312.122
5.24	0.01958345	9312.691
5.4	0.03841623	9313.238
5.56	0.06529814	9313.786
5.72	0.0947815	9314.326
5.88	0.151026	9314.94
6.04	0.2072941	9315.478
6.2	0.274794	9316.024
6.36	0.3547413	9316.571
6.52	0.44206	9317.118
6.68	0.5378675	9317.665
6.84	0.6415502	9318.212
7	0.7516981	9318.759
